 -57.12
 -54.11
 -51.11
 -48.10
 -45.09
 -42.08
 -39.07
 -36.07
 -33.07
 -30.10
 -27.12
 -24.15
 -21.17
 -18.20
 -15.19
 -12.18
  -9.18
  -6.17
  -3.17
  -0.16
   2.90
   5.97
   9.03
  12.09
  15.16
  18.22
  21.20
  24.18
  27.16
  30.13
  33.11
  36.10
  39.09
  42.08
  45.08
  48.07
  51.03
  54.00
  56.96
  59.84
