-60.00
-57.00
-54.00
-51.00
-48.00
-45.00
-42.00
-39.00
-36.01
-33.01
-30.01
-27.01
-24.01
-21.01
-18.01
-15.01
-12.01
-9.01
-6.01
-3.01
-0.01
2.99
5.99
8.99
11.99
14.99
17.99
20.99
23.99
26.99
29.99
32.99
35.99
38.99
41.99
44.99
47.99
50.99
53.99
56.99
