   0.1020875   0.9947760  -0.9947760   0.1020875       2.395      -3.871
   0.1023742   0.9947464  -0.9947464   0.1023742       6.193      -0.115
   0.1026555   0.9947174  -0.9947174   0.1026555       1.922      -2.550
   0.1029318   0.9946890  -0.9946890   0.1029318      -0.352      -0.080
   0.1032046   0.9946606  -0.9946606   0.1032046       4.496      -3.315
   0.1029873   0.9946832  -0.9946832   0.1029873      -0.871       1.098
   0.1027678   0.9947059  -0.9947059   0.1027678       1.004      -1.775
   0.1025462   0.9947288  -0.9947288   0.1025462       2.753      -1.047
   0.1023230   0.9947518  -0.9947518   0.1023230       3.230      -2.652
   0.1020982   0.9947748  -0.9947748   0.1020982      -3.185       1.356
   0.1020017   0.9947847  -0.9947847   0.1020017      -4.755      -0.457
   0.1019043   0.9947947  -0.9947947   0.1019043       4.700      -0.813
   0.1018058   0.9948048  -0.9948048   0.1018058      -3.422       0.099
   0.1017069   0.9948149  -0.9948149   0.1017069       5.072       0.048
   0.1016077   0.9948251  -0.9948251   0.1016077      -1.181      -0.029
   0.1016918   0.9948165  -0.9948165   0.1016918       3.793       1.235
   0.1017760   0.9948079  -0.9948079   0.1017760      -1.108       0.702
   0.1018597   0.9947993  -0.9947993   0.1018597       9.920       1.245
   0.1019432   0.9947908  -0.9947908   0.1019432       1.957       1.017
   0.1020266   0.9947821  -0.9947821   0.1020266      13.564      11.271
   0.1019915   0.9947858  -0.9947858   0.1019915       1.521       0.841
   0.1019564   0.9947893  -0.9947893   0.1019564     -19.156       6.275
   0.1019215   0.9947930  -0.9947930   0.1019215       8.771       3.877
   0.1018867   0.9947965  -0.9947965   0.1018867      -6.656      -2.614
   0.1018523   0.9947999  -0.9947999   0.1018523       6.816       3.852
   0.1016172   0.9948241  -0.9948241   0.1016172      -7.930      -3.080
   0.1013819   0.9948480  -0.9948480   0.1013819       5.134       3.922
   0.1011475   0.9948719  -0.9948719   0.1011475      -7.196      -4.052
   0.1009137   0.9948957  -0.9948957   0.1009137       3.117       4.914
   0.1006807   0.9949193  -0.9949193   0.1006807      -4.378      -4.785
   0.1006846   0.9949188  -0.9949188   0.1006846       4.752       2.449
   0.1006896   0.9949184  -0.9949184   0.1006896      -9.172      -4.053
   0.1006964   0.9949177  -0.9949177   0.1006964       5.282       3.140
   0.1007052   0.9949169  -0.9949169   0.1007052      -6.870      -5.769
   0.1007161   0.9949157  -0.9949157   0.1007161       1.302       2.969
   0.1006358   0.9949239  -0.9949239   0.1006358      -2.460      -5.050
   0.1005588   0.9949317  -0.9949317   0.1005588       1.516       0.555
   0.1004860   0.9949389  -0.9949389   0.1004860      -5.027      -5.296
   0.1004192   0.9949457  -0.9949457   0.1004192      -3.070       0.039
   0.1004192   0.9949457  -0.9949457   0.1004192      -3.070       0.039
